# Time (fs)   Electron energy
1000 6.33693647
1001 6.29014444
1002 6.24758005
1003 6.20778751
1004 6.16988611
1005 6.13341379
1006 6.09812069
1007 6.06379509
1008 6.03042936
1009 5.99780750
1010 5.96585035
1011 5.93462229
1012 5.90391970
1013 5.87379408
1014 5.84424114
1015 5.81514215
1016 5.78661156
1017 5.75837851
1018 5.73078299
1019 5.70328856
1020 5.67623758
1021 5.64949417
1022 5.62321806
1023 5.59707451
1024 5.57142973
1025 5.54585218
1026 5.52087164
1027 5.49590254
1028 5.47138119
1029 5.44709682
1030 5.42291880
1031 5.39909887
1032 5.37531281
1033 5.35180616
1034 5.32888460
1035 5.30590630
1036 5.28280497
1037 5.26010084
1038 5.23767614
1039 5.21564579
1040 5.19367266
1041 5.17168331
1042 5.14996099
1043 5.12876987
1044 5.10736370
1045 5.08594608
1046 5.06456947
1047 5.04342270
1048 5.02261829
1049 5.00208187
1050 4.98156166
1051 4.96107864
1052 4.94063473
1053 4.92018938
1054 4.89984894
1055 4.87980890
1056 4.85993052
1057 4.84027624
1058 4.82096291
1059 4.80134630
1060 4.78186178
1061 4.76254272
1062 4.74286366
1063 4.72335339
1064 4.70411301
1065 4.68492413
1066 4.66589069
1067 4.64699650
1068 4.62834740
1069 4.61007738
1070 4.59201622
1071 4.57423782
1072 4.55635929
1073 4.53808117
1074 4.51967096
1075 4.50131989
1076 4.48297787
1077 4.46473360
1078 4.44627810
1079 4.42787123
1080 4.40954781
1081 4.39106512
1082 4.37248945
1083 4.35424662
1084 4.33600187
1085 4.31769657
1086 4.29964161
1087 4.28147984
1088 4.26353979
1089 4.24554873
1090 4.22764349
1091 4.20983124
1092 4.19205761
1093 4.17431068
1094 4.15668058
1095 4.13923168
1096 4.12200069
1097 4.10491514
1098 4.08784199
1099 4.07080507
1100 4.05380774
1101 4.03703499
1102 4.02028656
1103 4.00363111
1104 3.98697686
1105 3.97032714
1106 3.95379949
1107 3.93721557
1108 3.92082834
1109 3.90454102
1110 3.88832903
1111 3.87205696
1112 3.85598922
1113 3.83984113
1114 3.82373810
1115 3.80790067
1116 3.79207754
1117 3.77635241
1118 3.76083708
1119 3.74525928
1120 3.72979736
1121 3.71438241
1122 3.69900680
1123 3.68376565
1124 3.66860390
1125 3.65347338
1126 3.63844395
1127 3.62347317
1128 3.60854244
1129 3.59357333
1130 3.57875156
1131 3.56386256
1132 3.54910541
1133 3.53440762
1134 3.51974487
1135 3.50515962
1136 3.49059606
1137 3.47605395
1138 3.46162868
1139 3.44723821
1140 3.43305898
1141 3.41890740
1142 3.40482783
1143 3.39074373
1144 3.37667060
1145 3.36266351
1146 3.34876204
1147 3.33493066
1148 3.32109284
1149 3.30729556
1150 3.29354715
1151 3.27998805
1152 3.26643562
1153 3.25291276
1154 3.23940539
1155 3.22595692
1156 3.21253991
1157 3.19926238
1158 3.18595648
1159 3.17270422
1160 3.15948248
1161 3.14639711
1162 3.13320899
1163 3.12024665
1164 3.10715699
1165 3.09421825
1166 3.08130622
1167 3.06854963
1168 3.05580282
1169 3.04312778
1170 3.03053093
1171 3.01791739
1172 3.00538731
1173 2.99288607
1174 2.98045421
1175 2.96814919
1176 2.95581269
1177 2.94357109
1178 2.93135333
1179 2.91910434
1180 2.90706444
1181 2.89504766
1182 2.88314557
1183 2.87123799
1184 2.85932851
1185 2.84746695
1186 2.83569026
1187 2.82397628
1188 2.81228638
1189 2.80067515
1190 2.78905511
1191 2.77747440
1192 2.76595330
1193 2.75440478
1194 2.74290419
1195 2.73140454
1196 2.71991396
1197 2.70843077
1198 2.69708538
1199 2.68577981
1200 2.67446613
1201 2.66322660
1202 2.65199494
1203 2.64083004
1204 2.62965608
1205 2.61845660
1206 2.60744786
1207 2.59633446
1208 2.58529282
1209 2.57420874
1210 2.56320238
1211 2.55223250
1212 2.54143429
1213 2.53072405
1214 2.51996779
1215 2.50928545
1216 2.49856520
1217 2.48794293
1218 2.47731996
1219 2.46671462
1220 2.45611477
1221 2.44561172
1222 2.43524623
1223 2.42488313
1224 2.41451454
1225 2.40423107
1226 2.39391303
1227 2.38368273
1228 2.37335944
1229 2.36320257
1230 2.35300636
1231 2.34287143
1232 2.33280277
1233 2.32269406
1234 2.31269550
1235 2.30276299
1236 2.29276872
1237 2.28272057
1238 2.27274656
1239 2.26287746
1240 2.25303435
1241 2.24313545
1242 2.23331213
1243 2.22349691
1244 2.21374536
1245 2.20394111
1246 2.19421387
1247 2.18449545
1248 2.17474031
1249 2.16515183
1250 2.15559721
1251 2.14603829
1252 2.13647056
1253 2.12689662
1254 2.11737347
1255 2.10787535
1256 2.09844422
1257 2.08908343
1258 2.07968712
1259 2.07032442
1260 2.06108189
1261 2.05186725
1262 2.04273129
1263 2.03362703
1264 2.02465439
1265 2.01556921
1266 2.00651383
1267 1.99740934
1268 1.98843050
1269 1.97941637
1270 1.97040081
1271 1.96149015
1272 1.95270777
1273 1.94404268
1274 1.93531895
1275 1.92661905
1276 1.91795397
1277 1.90932846
1278 1.90066671
1279 1.89202023
1280 1.88331938
1281 1.87467241
1282 1.86605453
1283 1.85751152
1284 1.84904337
1285 1.84058475
1286 1.83222389
1287 1.82384634
1288 1.81556702
1289 1.80735683
1290 1.79920483
1291 1.79096508
1292 1.78271723
1293 1.77447701
1294 1.76630068
1295 1.75809002
1296 1.74997663
1297 1.74188757
1298 1.73371029
1299 1.72558212
1300 1.71743774
1301 1.70935583
1302 1.70126963
1303 1.69325972
1304 1.68516064
1305 1.67726278
1306 1.66930294
1307 1.66145754
1308 1.65362740
1309 1.64587259
1310 1.63809490
1311 1.63032055
1312 1.62251472
1313 1.61469412
1314 1.60695171
1315 1.59921360
1316 1.59159470
1317 1.58397579
1318 1.57648897
1319 1.56889868
1320 1.56138325
1321 1.55391550
1322 1.54647732
1323 1.53911400
1324 1.53179169
1325 1.52438879
1326 1.51704121
1327 1.50966740
1328 1.50231886
1329 1.49498415
1330 1.48773098
1331 1.48034143
1332 1.47307730
1333 1.46579790
1334 1.45857334
1335 1.45127058
1336 1.44406509
1337 1.43691826
1338 1.42987490
1339 1.42268848
1340 1.41556406
1341 1.40854692
1342 1.40154791
1343 1.39447069
1344 1.38746357
1345 1.38061810
1346 1.37376213
1347 1.36676741
1348 1.35989761
1349 1.35297441
1350 1.34603310
1351 1.33913279
1352 1.33225346
1353 1.32534838
1354 1.31855774
1355 1.31185865
1356 1.30506325
1357 1.29821730
1358 1.29149818
1359 1.28473282
1360 1.27811766
1361 1.27146196
1362 1.26480055
1363 1.25818110
1364 1.25157213
1365 1.24490833
1366 1.23824024
1367 1.23161268
1368 1.22496557
1369 1.21831512
1370 1.21170378
1371 1.20519400
1372 1.19871521
1373 1.19217968
1374 1.18569517
1375 1.17917490
1376 1.17272091
1377 1.16624594
1378 1.15974188
1379 1.15326357
1380 1.14682388
1381 1.14041376
1382 1.13399172
1383 1.12757969
1384 1.12116194
1385 1.11478901
1386 1.10833693
1387 1.10190773
1388 1.09553623
1389 1.08924246
1390 1.08292580
1391 1.07663536
1392 1.07027864
1393 1.06393766
1394 1.05770969
1395 1.05150557
1396 1.04527998
1397 1.03914070
1398 1.03304291
1399 1.02700901
1400 1.02107286
1401 1.01510859
1402 1.00923777
1403 1.00328732
1404 0.997464180
1405 0.991668224
1406 0.985939503
1407 0.980167866
1408 0.974475861
1409 0.968730450
1410 0.963072777
1411 0.957493305
1412 0.951875687
1413 0.946195126
1414 0.940533161
1415 0.934885502
1416 0.929370403
1417 0.923779964
1418 0.918306828
1419 0.912768364
1420 0.907253742
1421 0.901714802
1422 0.896168709
1423 0.890683174
1424 0.885226727
1425 0.879832268
1426 0.874438286
1427 0.869050980
1428 0.863743305
1429 0.858476162
1430 0.853219986
1431 0.847858429
1432 0.842659950
1433 0.837442875
1434 0.832301140
1435 0.827224255
1436 0.822087288
1437 0.816953659
1438 0.811846256
1439 0.806821346
1440 0.801714897
1441 0.796700478
1442 0.791647434
1443 0.786588669
1444 0.781523705
1445 0.776566982
1446 0.771557331
1447 0.766571999
1448 0.761600494
1449 0.756567001
1450 0.751566410
1451 0.746587276
1452 0.741621017
1453 0.736704826
1454 0.731837273
1455 0.726927280
1456 0.722026825
1457 0.717143059
1458 0.712267876
1459 0.707431316
1460 0.702626228
1461 0.697809219
1462 0.693008900
1463 0.688198090
1464 0.683383465
1465 0.678567886
1466 0.673729897
1467 0.668940067
1468 0.664152622
1469 0.659337997
1470 0.654520035
1471 0.649713039
1472 0.644907475
1473 0.640079498
1474 0.635275364
1475 0.630612850
1476 0.625870228
1477 0.621097088
1478 0.616329670
1479 0.611682415
1480 0.607021809
1481 0.602393150
1482 0.597741127
1483 0.593088150
1484 0.588450909
1485 0.584002495
1486 0.579490185
1487 0.574974060
1488 0.570529461
1489 0.566085815
1490 0.561676502
1491 0.557240486
1492 0.552819252
1493 0.548425674
1494 0.544012070
1495 0.539620399
1496 0.535242081
1497 0.530854702
1498 0.526517868
1499 0.522271633
1500 0.517974377
1501 0.513766766
1502 0.509477139
1503 0.505221844
1504 0.501101017
1505 0.496953487
1506 0.492854595
1507 0.488749504
1508 0.484618664
1509 0.480550766
1510 0.476516247
1511 0.472479820
1512 0.468400478
1513 0.464353085
1514 0.460254192
1515 0.456263542
1516 0.452176094
1517 0.448124409
1518 0.444162846
1519 0.440310478
1520 0.436396122
1521 0.432428360
1522 0.428462982
1523 0.424602985
1524 0.420768738
1525 0.416893482
1526 0.413036346
1527 0.409193993
1528 0.405400276
1529 0.401566982
1530 0.397754669
1531 0.393988609
1532 0.390223026
1533 0.386480331
1534 0.382725716
1535 0.379014015
1536 0.375266552
1537 0.371538639
1538 0.367805958
1539 0.364048004
1540 0.360407829
1541 0.356778622
1542 0.353089809
1543 0.349479675
1544 0.345850468
1545 0.342061043
1546 0.338333130
1547 0.334675312
1548 0.330995560
1549 0.327386379
1550 0.323764324
1551 0.320165157
1552 0.316555977
1553 0.312926769
1554 0.309356689
1555 0.305766582
1556 0.302167892
1557 0.298615456
1558 0.295077801
1559 0.291594505
1560 0.288070202
1561 0.284587383
1562 0.281048775
1563 0.277497768
1564 0.273940563
1565 0.270437241
1566 0.266912460
1567 0.263383389
1568 0.259949207
1569 0.256514072
1570 0.253008842
1571 0.249484539
1572 0.245990753
1573 0.242525578
1574 0.239081860
1575 0.235644817
1576 0.232282639
1577 0.228882313
1578 0.225472450
1579 0.222057819
1580 0.218661308
1581 0.215320110
1582 0.211963654
1583 0.208568096
1584 0.205184460
1585 0.201789856
1586 0.198374271
1587 0.195025921
1588 0.191646099
1589 0.188256264
1590 0.184869289
1591 0.181507587
1592 0.178149700
1593 0.174762726
1594 0.171385765
1595 0.167991638
1596 0.164621353
1597 0.161242962
1598 0.157918930
1599 0.154553413
1600 0.151202202
1601 0.147812366
1602 0.144446373
1603 0.141166210
1604 0.137873650
1605 0.134648323
1606 0.131383419
1607 0.128101826
1608 0.124858856
1609 0.121574879
1610 0.118299484
1611 0.115020275
1612 0.111748695
1613 0.108484745
1614 0.105226994
1615 0.101997852
1616 9.87391472E-02
1617 9.54728127E-02
1618 9.22498703E-02
1619 8.90111923E-02
1620 8.57748985E-02
1621 8.25338364E-02
1622 7.93185234E-02
1623 7.61103630E-02
1624 7.28697777E-02
1625 6.96444511E-02
1626 6.64224625E-02
1627 6.32500648E-02
1628 6.00490570E-02
1629 5.68504333E-02
1630 5.36890030E-02
1631 5.04899025E-02
1632 4.73122597E-02
1633 4.41050529E-02
1634 4.09173965E-02
1635 3.77035141E-02
1636 3.45187187E-02
1637 3.13138962E-02
1638 2.81767845E-02
1639 2.50034332E-02
1640 2.18329430E-02
1641 1.86467171E-02
1642 1.54590607E-02
1643 1.22656822E-02
1644 9.07850266E-03
1645 5.92088699E-03
1646 2.82335281E-03
1647 -3.39031219E-04
1648 -3.51190567E-03
1649 -6.68430328E-03
1650 -9.84954834E-03
1651 -1.29699707E-02
1652 -1.61256790E-02
1653 -1.92847252E-02
1654 -2.24070549E-02
1655 -2.55918503E-02
1656 -2.87556648E-02
1657 -3.19104195E-02
1658 -3.50561142E-02
1659 -3.81960869E-02
1660 -4.13112640E-02
1661 -4.44493294E-02
1662 -4.74638939E-02
1663 -5.05075455E-02
1664 -5.34634590E-02
1665 -5.65114021E-02
1666 -5.94787598E-02
1667 -6.23812675E-02
1668 -6.53252602E-02
1669 -6.82420731E-02
1670 -7.11507797E-02
1671 -7.39879608E-02
1672 -7.69071579E-02
1673 -7.97715187E-02
1674 -8.25777054E-02
1675 -8.53180885E-02
1676 -8.80374908E-02
1677 -9.08198357E-02
1678 -9.36613083E-02
1679 -9.62958336E-02
1680 -9.89217758E-02
1681 -0.101645947
1682 -0.104367256
1683 -0.107073784
1684 -0.109809399
1685 -0.112560272
1686 -0.115311623
1687 -0.117966652
1688 -0.120655060
1689 -0.123151302
1690 -0.125723839
1691 -0.128265858
1692 -0.130709171
1693 -0.133209229
1694 -0.135622501
1695 -0.138112068
1696 -0.140555859
1697 -0.142915249
1698 -0.145236015
1699 -0.147644043
1700 -0.150010586
1701 -0.152373791
1702 -0.154679298
1703 -0.156939983
1704 -0.159147739
1705 -0.161411762
1706 -0.163716793
1707 -0.166028023
1708 -0.168363094
1709 -0.170662403
1710 -0.172909260
1711 -0.175145626
1712 -0.177384853
1713 -0.179554939
1714 -0.181743145
1715 -0.183812618
1716 -0.185954571
1717 -0.188097477
1718 -0.190207481
1719 -0.192221165
1720 -0.194267273
1721 -0.196368217
1722 -0.198410511
1723 -0.200487137
1724 -0.202508450
1725 -0.204434395
1726 -0.206372738
1727 -0.208348751
1728 -0.210308552
1729 -0.212323666
1730 -0.214302063
1731 -0.216237545
1732 -0.218056202
1733 -0.219873428
1734 -0.221730232
1735 -0.223579884
1736 -0.225485325
1737 -0.227377892
1738 -0.229212761
1739 -0.231009483
1740 -0.232841969
1741 -0.234695911
1742 -0.236514091
1743 -0.238293648
1744 -0.240103722
1745 -0.241858482
1746 -0.243564129
1747 -0.245324612
1748 -0.247080326
1749 -0.248890877
1750 -0.250666142
1751 -0.252439976
1752 -0.254220009
1753 -0.255985737
1754 -0.257734776
1755 -0.259392738
1756 -0.261094093
1757 -0.262808323
1758 -0.264501572
1759 -0.266215324
1760 -0.267936230
1761 -0.269602776
1762 -0.271324158
1763 -0.273025990
1764 -0.274710178
1765 -0.276401997
1766 -0.278086662
1767 -0.279732704
1768 -0.281417370
1769 -0.283072472
1770 -0.284677029
1771 -0.286289692
1772 -0.287899971
1773 -0.289519787
1774 -0.291152477
1775 -0.292798519
1776 -0.294435978
1777 -0.296074867
1778 -0.297699928
1779 -0.299334049
1780 -0.300939560
1781 -0.302535057
1782 -0.304104328
1783 -0.305681229
1784 -0.307273388
1785 -0.308861732
1786 -0.310455799
1787 -0.312037945
1788 -0.313614845
1789 -0.315214157
1790 -0.316796303
1791 -0.318383217
1792 -0.319976330
1793 -0.321538925
1794 -0.323114395
1795 -0.324672222
1796 -0.326243401
1797 -0.327824116
1798 -0.329411507
1799 -0.330981255
1800 -0.332559586
1801 -0.334121704
1802 -0.335677624
1803 -0.337254047
1804 -0.338798523
1805 -0.340373516
1806 -0.341945648
1807 -0.343517780
1808 -0.345096111
1809 -0.346660614
1810 -0.348238945
1811 -0.349798203
1812 -0.351356506
1813 -0.352939129
1814 -0.354500294
1815 -0.356085777
1816 -0.357644081
1817 -0.359213829
1818 -0.360795498
1819 -0.362302780
1820 -0.363856316
1821 -0.365411282
1822 -0.366940975
1823 -0.368520737
1824 -0.370085716
1825 -0.371657848
1826 -0.373215199
1827 -0.374782562
1828 -0.376318455
1829 -0.377822876
1830 -0.379291058
1831 -0.380699635
1832 -0.382130623
1833 -0.383561134
1834 -0.384930134
1835 -0.386277199
1836 -0.387670040
1837 -0.389070988
1838 -0.390463352
1839 -0.391888142
1840 -0.393269062
1841 -0.394717693
1842 -0.396072865
1843 -0.397408009
1844 -0.398641586
1845 -0.399921417
1846 -0.401203632
1847 -0.402482510
1848 -0.403713703
1849 -0.404979706
1850 -0.406235218
1851 -0.407551765
1852 -0.408846855
1853 -0.410132885
1854 -0.411349297
1855 -0.412594795
1856 -0.413826942
1857 -0.415013313
1858 -0.416181087
1859 -0.417340279
1860 -0.418550491
1861 -0.419717789
1862 -0.420868397
1863 -0.422034740
1864 -0.423192024
1865 -0.424339294
1866 -0.425453186
1867 -0.426609039
1868 -0.427812576
1869 -0.428962231
1870 -0.430055141
1871 -0.431133270
1872 -0.432213306
1873 -0.433304310
1874 -0.434396267
1875 -0.435540199
1876 -0.436631203
1877 -0.437724590
1878 -0.438815594
1879 -0.439925671
1880 -0.441027164
1881 -0.442120075
1882 -0.443212986
1883 -0.444324017
1884 -0.445413113
1885 -0.446502686
1886 -0.447612762
1887 -0.448630810
1888 -0.449663639
1889 -0.450650215
1890 -0.451628208
1891 -0.452589989
1892 -0.453577518
1893 -0.454573631
1894 -0.455559731
1895 -0.456552029
1896 -0.457553864
1897 -0.458557606
1898 -0.459558487
1899 -0.460565090
1900 -0.461554527
1901 -0.462554455
1902 -0.463506699
1903 -0.464498520
1904 -0.465480804
1905 -0.466434002
1906 -0.467422009
1907 -0.468382359
1908 -0.469319820
1909 -0.470237732
1910 -0.471167564
1911 -0.472136021
1912 -0.473083019
1913 -0.474043846
1914 -0.474998951
1915 -0.475949287
1916 -0.476923466
1917 -0.477857113
1918 -0.478778362
1919 -0.479713440
1920 -0.480711460
1921 -0.481634140
1922 -0.482572556
1923 -0.483395100
1924 -0.484224796
1925 -0.485059738
1926 -0.485921860
1927 -0.486744404
1928 -0.487609863
1929 -0.488468170
1930 -0.489295006
1931 -0.490166664
1932 -0.491024494
1933 -0.491896152
1934 -0.492770195
1935 -0.493634701
1936 -0.494416714
1937 -0.495193481
1938 -0.495986938
1939 -0.496803761
1940 -0.497560501
1941 -0.498332024
1942 -0.499136448
1943 -0.499938011
1944 -0.500711441
1945 -0.501487255
1946 -0.502289295
1947 -0.503042698
1948 -0.503848076
1949 -0.504628181
1950 -0.505311966
1951 -0.505992889
1952 -0.506650448
1953 -0.507322311
1954 -0.507970810
1955 -0.508584023
1956 -0.509235859
1957 -0.509852886
1958 -0.510517597
1959 -0.511183739
1960 -0.511814594
1961 -0.512420177
1962 -0.513015747
1963 -0.513540745
1964 -0.514109135
1965 -0.514628887
1966 -0.515121460
1967 -0.515567780
1968 -0.515680313
1969 -0.515680313
1970 -0.515680313
1971 -0.515680313
1972 -0.515680313
1973 -0.515680313
1974 -0.515680313
1975 -0.515680313
1976 -0.515680790
1977 -0.515680790
1978 -0.515680790
1979 -0.515680790
1980 -0.515680790
1981 -0.515680790
1982 -0.515680790
1983 -0.515680790
1984 -0.515680790
1985 -0.515680790
1986 -0.515680790
1987 -0.515680790
1988 -0.515680790
1989 -0.515680790
1990 -0.515680790
1991 -0.515680790
1992 -0.515680790
1993 -0.515680790
1994 -0.515680790
1995 -0.515680790
1996 -0.515680790
1997 -0.515680790
1998 -0.515680790
1999 -0.515680790
2000 -0.515680790
2001 -0.515680790
2002 -0.515680790
2003 -0.515680790
2004 -0.515680790
2005 -0.515680790
2006 -0.515680790
2007 -0.515680790
2008 -0.515680790
2009 -0.515680790
2010 -0.515680790
2011 -0.515680790
2012 -0.515680790
2013 -0.515680790
2014 -0.515680790
2015 -0.515680790
2016 -0.515680790
2017 -0.515680790
2018 -0.515680790
2019 -0.515680790
2020 -0.515680790
2021 -0.515680790
2022 -0.515680790
2023 -0.515680790
2024 -0.515680790
2025 -0.515680790
2026 -0.515680790
2027 -0.515680790
2028 -0.515680790
2029 -0.515680790
2030 -0.515680790
2031 -0.515680790
2032 -0.515680790
2033 -0.515680790
2034 -0.515680790
2035 -0.515680790
2036 -0.515680790
2037 -0.515680790
2038 -0.515680790
2039 -0.515680790
2040 -0.515680790
2041 -0.515680790
2042 -0.515680790
2043 -0.515680790
2044 -0.515680790
2045 -0.515680790
2046 -0.515680790
2047 -0.515680790
2048 -0.515680790
2049 -0.515680790
2050 -0.515680790
2051 -0.515680790
2052 -0.515680790
2053 -0.515680790
2054 -0.515680790
2055 -0.515680790
2056 -0.515680790
2057 -0.515680790
2058 -0.515680790
2059 -0.515680790
2060 -0.515680790
2061 -0.515680790
2062 -0.515680790
2063 -0.515680790
2064 -0.515680790
2065 -0.515680790
2066 -0.515680790
2067 -0.515680790
2068 -0.515680790
2069 -0.515680790
2070 -0.515680790
2071 -0.515680790
2072 -0.515680790
2073 -0.515680790
2074 -0.515680790
2075 -0.515680790
2076 -0.515680790
2077 -0.515680790
2078 -0.515680790
2079 -0.515680790
2080 -0.515680790
2081 -0.515680790
2082 -0.515680790
2083 -0.515680790
2084 -0.515680790
2085 -0.515680790
2086 -0.515680790
2087 -0.515680790
2088 -0.515680790
2089 -0.515680790
2090 -0.515680790
2091 -0.515680790
2092 -0.515680790
2093 -0.515680790
2094 -0.515680790
2095 -0.515680790
2096 -0.515680790
2097 -0.515680790
2098 -0.515680790
2099 -0.515680790
2100 -0.515680790
2101 -0.515680790
2102 -0.515680790
2103 -0.515680790
2104 -0.515680790
2105 -0.515680790
2106 -0.515680790
2107 -0.515680790
2108 -0.515680790
2109 -0.515680790
2110 -0.515680790
2111 -0.515680790
2112 -0.515680790
2113 -0.515680790
2114 -0.515680790
2115 -0.515680790
2116 -0.515680790
2117 -0.515680790
2118 -0.515680790
2119 -0.515680790
2120 -0.515680790
2121 -0.515680790
2122 -0.515680790
2123 -0.515680790
2124 -0.515680790
2125 -0.515680790
2126 -0.515680790
2127 -0.515680790
2128 -0.515680790
2129 -0.515680790
2130 -0.515680790
2131 -0.515680790
2132 -0.515680790
2133 -0.515680790
2134 -0.515680790
2135 -0.515680790
2136 -0.515680790
2137 -0.515680790
2138 -0.515680790
2139 -0.515680790
2140 -0.515680790
2141 -0.515680790
2142 -0.515680790
2143 -0.515680790
2144 -0.515680790
2145 -0.515680790
2146 -0.515680790
2147 -0.515680790
2148 -0.515680790
2149 -0.515680790
2150 -0.515680790
2151 -0.515680790
2152 -0.515680790
2153 -0.515680790
2154 -0.515680790
2155 -0.515680790
2156 -0.515680790
